Loop Gain Phase X,Loop Gain Phase Y
1,179.9986737263924
1.023059729842509,179.9986431428813
1.046651210825427,179.9986118541228
1.070786704986395,179.9985798438539
1.095478757122332,179.9985470954368
1.12074020130978,179.9985135918501
1.146584167575622,179.9984793156798
1.173024088721613,179.9984442491102
1.200073707306289,179.998408373915
1.227747082787869,179.9983716714475
1.256058598831886,179.998334122631
1.285022970787309,179.9982957079489
1.314655253335082,179.9982564074347
1.344970848313024,179.9982162006611
1.375985512721172,179.9981750667304
1.407715366911727,179.9981329842622
1.44017690296786,179.9980899313837
1.473386993275719,179.9980458857175
1.507362899294123,179.9980008243701
1.542122280526466,179.9979547239202
1.57768320369952,179.9979075604064
1.614064152153895,179.9978593093147
1.651284035451041,179.9978099455658
1.689362199201789,179.9977594435023
1.728318435121529,179.9977077768748
1.768172991317259,179.9976549188289
1.808946582811855,179.9976008418907
1.850660402311025,179.9975455179529
1.893336131218546,179.9974889182601
1.936995950905506,179.9974310133936
1.98166255423942,179.9973717732566
2.027359157379196,179.997311167058
2.074109511842097,179.9972491632968
2.121937916848953,179.9971857297457
2.170869231954065,179.9971208334341
2.22092888996634,179.997054440631
2.272142910168386,179.9969865168278
2.32453791184044,179.9969170267201
2.37814112809615,179.9968459341893
2.432980420037406,179.9967732022839
2.489084291235582,179.9966987932006
2.546481902546706,179.9966226682638
2.60520308726827,179.9965447879065
2.665278366645546,179.9964651116493
2.726738965735475,179.9963835980791
2.789616829636377,179.996300204828
2.853944640091907,179.9962148885512
2.919755832477902,179.996127604904
2.987084613180931,179.9960383085195
3.055965977377597,179.9959469529846
3.126435727223822,179.9958534908156
3.198530490463571,179.9957578734344
3.272287739466687,179.9956600511422
3.347745810705742,179.9955599730945
3.424943924682006,179.9954575872739
3.503922206310914,179.9953528404641
3.584721705777611,179.9952456782211
3.667384419873419,179.9951360448459
3.751953313824325,179.9950238833546
3.838472343622819,179.9949091354497
3.926986478874702,179.9947917414891
4.017541726172737,179.9946716404556
4.110185153009286,179.9945487699247
4.20496491224037,179.9944230660326
4.30193026711386,179.9942944634429
4.401131616874816,179.9941628953121
4.502620522961273,179.9940282932559
4.606449735804095,179.9938905873127
4.712673222244832,179.9937497059078
4.821346193585822,179.9936055758157
4.932525134287118,179.9934581221228
5.046267831325163,179.9933072681876
5.162633404228463,179.9931529356016
5.281682335805882,179.9929950441479
5.403476503583515,179.99283351176
5.528079211966493,179.9926682544791
5.655555225142428,179.99249918641
5.7859708007436,179.9923262196771
5.919393724285391,179.9921492643782
6.055893344398853,179.991968228538
6.195540608875736,179.9917830180604
6.338408101544702,179.9915935366794
6.484570079997891,179.9913996859092
6.634102514187457,179.9912013649928
6.787083125912126,179.9909984708498
6.943591429214308,179.990790898023
7.103708771708749,179.9905785386231
7.267518376864211,179.990361282273
7.435105387260166,179.9901390160505
7.606556908840965,179.9899116244293
7.781962056190506,179.9896789892191
7.961411998850911,179.9894409895041
8.145000008709319,179.9891975015803
8.332821508477386,179.9889483988912
8.52497412128872,179.9886935519619
8.721557721440014,179.9884328283316
8.922674486302265,179.9881660924854
9.12842894942904,179.9878932057831
9.338928054889408,179.9876140263877
9.554281212853782,179.9873284091916
9.774600356461546,179.9870362057407
10.00000000000004,179.9867372641579
10.23059729842512,179.9864314290636
10.4665121082543,179.9861185414956
10.70786704986399,179.9857984388255
10.95478757122336,179.9854709546753
11.20740201309784,179.9851359188301
11.46584167575626,179.9847931571498
11.73024088721618,179.9844424914789
12.00073707306293,179.9840837395536
12.27747082787874,179.983716714907
12.5605859883189,179.9833412267727
12.85022970787314,179.9829570799849
13.14655253335087,179.9825640748776
13.44970848313029,179.9821620071802
13.75985512721177,179.9817506679123
14.07715366911733,179.9813298432739
14.40176902967865,179.9808993145352
14.73386993275725,179.9804588579222
15.07362899294129,179.9800082445011
15.42122280526472,179.9795472400588
15.77683203699526,179.9790756049813
16.140641521539,179.9785930941293
16.51284035451047,179.9780994567106
16.89362199201796,179.9775944361496
17.28318435121535,179.9770777699545
17.68172991317265,179.9765491895805
18.08946582811861,179.9760084202899
18.50660402311032,179.97545518101
18.93336131218553,179.9748891841865
19.36995950905513,179.9743101356342
19.81662554239427,179.9737177343841
20.27359157379204,179.973111672527
20.74109511842104,179.9724916350534
21.2193791684896,179.9718572996899
21.70869231954073,179.9712083367313
22.20928889966348,179.9705444088699
22.72142910168394,179.9698651710195
23.24537911840449,179.9691702701365
23.78141128096158,179.9684593450363
24.32980420037415,179.9677320262053
24.8908429123559,179.9669879356093
25.46481902546715,179.9662266864966
26.0520308726828,179.9654478831974
26.65278366645556,179.9646511209176
27.26738965735485,179.963835985529
27.89616829636386,179.9630020533537
28.53944640091917,179.9621488909439
29.19755832477912,179.9612760548567
29.87084613180941,179.9603830914237
30.55965977377608,179.959469536515
31.26435727223833,179.9585349152982
31.98530490463582,179.9575787419914
32.72287739466699,179.9566005196108
33.47745810705754,179.9555997397125
34.24943924682018,179.954575882128
35.03922206310926,179.9535284146942
35.84721705777623,179.9524567929764
36.67384419873432,179.9513604599856
37.51953313824338,179.9502388458889
38.38472343622832,179.9490913677135
39.26986478874716,179.9479174290435
40.17541726172751,179.94671641971
41.101851530093,179.9454877154741
42.04964912240384,179.9442306777021
43.01930267113875,179.942944653034
44.01131616874832,179.9416289730439
45.02620522961289,179.9402829538921
46.06449735804111,179.9389058959703
47.12673222244849,179.9374970835376
48.2134619358584,179.9360557843488
49.32525134287136,179.9345812492736
50.46267831325181,179.9330727119073
51.62633404228481,179.9315293881725
52.816823358059,179.9299504759119
54.03476503583534,179.9283351544707
55.28079211966514,179.9266825842711
56.55555225142449,179.9249919063749
57.85970800743622,179.923262242038
59.19393724285413,179.9214926922529
60.55893344398875,179.9196823372824
61.95540608875759,179.9178302361807
63.38408101544725,179.9159354263051
64.84570079997914,179.9139969228154
66.34102514187481,179.9120137181619
67.87083125912152,179.9099847815624
69.43591429214335,179.9079090584658
71.03708771708776,179.9057854700048
72.67518376864238,179.9036129124345
74.35105387260194,179.9013902565596
76.06556908840994,179.8991163471466
77.81962056190535,179.8967900023247
79.61411998850942,179.8944100129708
81.4500000870935,179.8919751420811
83.32821508477417,179.8894841241289
85.24974121288751,179.8869356644067
87.21557721440047,179.8843284383532
89.22674486302299,179.8816610908653
91.28428949429073,179.8789322355941
93.38928054889442,179.876140454224
95.54281212853817,179.8732842957365
97.74600356461582,179.8703622756553
100.0000000000007,179.867372875276
102.3059729842516,179.8643145408764
104.6651210825434,179.8611856829093
107.0786704986403,179.8579846751766
109.547875712234,179.8547098539849
112.0740201309788,179.8513595172802
114.658416757563,179.8479319237648
117.3024088721622,179.8444252919915
120.0073707306297,179.840837799439
122.7747082787878,179.8371675815646
125.6058598831895,179.8334127308359
128.5022970787318,179.8295712957397
131.4655253335092,179.8256412797684
134.4970848313033,179.8216206403827
137.5985512721182,179.8175072879509
140.7715366911738,179.8132990846637
144.017690296787,179.8089938434232
147.338699327573,179.8045893267074
150.7362899294134,179.8000832454082
154.2122280526478,179.7954732576424
157.7683203699531,179.7907569675355
161.4064152153906,179.7859319239778
165.1284035451052,179.7809956193506
168.9362199201801,179.7759454882258
172.8318435121541,179.7707789060324
176.8172991317271,179.7654931876944
180.8946582811867,179.7600855862365
185.0660402311038,179.7545532913585
189.3336131218559,179.7488934279757
193.699595090552,179.7431030547273
198.1662554239434,179.7371791624485
202.7359157379211,179.7311186726097
207.4109511842111,179.7249184357186
212.1937916848968,179.718575229685
217.086923195408,179.7120857581494
222.0928889966356,179.7054466487726
227.2142910168402,179.6986544514859
232.4537911840457,179.6917056367008
237.8141128096167,179.6845965934784
243.2980420037423,179.6773236276563
248.9084291235599,179.669882959933
254.6481902546724,179.6622707239069
260.5203087268289,179.6544829640722
266.5278366645565,179.6465156337679
272.6738965735494,179.6383645930793
278.9616829636396,179.630025606693
285.3944640091926,179.6214943417004
291.9755832477921,179.6127663653535
298.7084613180951,179.6038371427665
305.5965977377618,179.5947020345676
312.6435727223844,179.5853562944954
319.8530490463592,179.5757950669401
327.2287739466709,179.5660133844291
334.7745810705765,179.5560061650562
342.4943924682029,179.5457682098487
350.3922206310938,179.5352942000783
358.4721705777634,179.5245786945084
366.7384419873443,179.5136161265785
375.195331382435,179.5024008015255
383.8472343622844,179.4909268934379
392.6986478874728,179.4791884422449
401.7541726172764,179.4671793506346
411.0185153009313,179.4548933809045
420.4964912240398,179.442324151737
430.1930267113889,179.4294651349061
440.1131616874846,179.4163096519046
450.2620522961303,179.4028508704994
460.6449735804126,179.3890818012035
471.2673222244864,179.374995293673
482.1346193585855,179.3605840330193
493.2525134287152,179.3458405360393
504.6267831325197,179.3307571473583
516.2633404228498,179.3153260354904
528.1682335805917,179.2995391888043
540.3476503583552,179.2833884114021
552.8079211966532,179.2668653189033
565.5555225142468,179.249961334136
578.5970800743642,179.2326676827288
591.9393724285433,179.2149753886059
605.5893344398895,179.1968752693797
619.554060887578,179.1783579316411
633.8408101544746,179.1594137661455
648.4570079997936,179.140032942889
663.4102514187502,179.120205406077
678.7083125912174,179.09992086898
694.3591429214357,179.0791688086772
710.3708771708798,179.0579384606769
726.7518376864261,179.0362188134294
743.5105387260218,179.0139986027073
760.6556908841019,178.9912663058702
778.1962056190559,178.9680101359977
796.1411998850966,178.944218035898
814.5000008709376,178.9198776719824
833.2821508477444,178.8949764280103
852.497412128878,178.8695013986923
872.1557721440076,178.8434393831584
892.2674486302329,178.8167768782855
912.8428949429106,178.7895000718788
933.8928054889475,178.7615948357084
955.428121285385,178.7330467183954
977.4600356461616,178.7038409381469
1000.000000000011,178.6739623753384
1023.05972984252,178.643395564936
1046.651210825438,178.6121246887606
1070.786704986407,178.5801335675918
1095.478757122344,178.5474056531024
1120.740201309792,178.5139240196301
1146.584167575635,178.4796713557789
1173.024088721626,178.4446299558412
1200.073707306302,178.4087817110566
1227.747082787883,178.3721081006831
1256.0585988319,178.3345901828914
1285.022970787323,178.296208585484
1314.655253335097,178.2569434964146
1344.970848313039,178.2167746541412
1375.985512721187,178.1756813377697
1407.715366911743,178.1336423570261
1440.176902967876,178.090636042021
1473.386993275736,178.0466402328272
1507.36289929414,178.0016322688644
1542.122280526484,177.9555889780814
1577.683203699538,177.908486665942
1614.064152153913,177.8603011042106
1651.284035451059,177.8110075195434
1689.362199201808,177.7605805818683
1728.318435121548,177.7089943925778
1768.172991317278,177.6562224725099
1808.946582811875,177.602237749737
1850.660402311046,177.5470125471425
1893.336131218567,177.4905185698187
1936.995950905528,177.4327268922519
1981.662554239442,177.3736079453154
2027.359157379219,177.3131315030762
2074.10951184212,177.2512666694077
2121.937916848977,177.1879818644128
2170.86923195409,177.123244810676
2220.928889966365,177.0570225193301
2272.142910168412,176.9892812759505
2324.537911840467,176.9199866262929
2378.141128096177,176.8491033618697
2432.980420037434,176.7765955053739
2489.08429123561,176.7024262959619
2546.481902546735,176.6265581744158
2605.2030872683,176.5489527681789
2665.278366645577,176.4695708762878
2726.738965735506,176.3883724542065
2789.616829636408,176.3053165985936
2853.944640091939,176.220361532001
2919.755832477935,176.1334645875377
2987.084613180965,176.0445821935008
3055.965977377632,175.953669858017
3126.435727223858,175.8606821537041
3198.530490463607,175.7655727023813
3272.287739466724,175.6682941598577
3347.74581070578,175.5687982008319
3424.943924682045,175.4670355039307
3503.922206310954,175.3629557369265
3584.721705777652,175.2565075421675
3667.384419873461,175.1476385222743
3751.953313824368,175.0362952261338
3838.472343622863,174.9224231352306
3926.986478874747,174.8059666504235
4017.541726172783,174.686869079133
4110.185153009333,174.5650726230809
4204.964912240418,174.4405183665995
4301.93026711391,174.313146265607
4401.131616874868,174.1828951372929
4502.620522961325,174.0497026506386
4606.449735804148,173.9135053177861
4712.673222244887,173.7742384864402
4821.346193585879,173.6318363333091
4932.525134287176,173.4862318587563
5046.267831325222,173.3373568827026
5162.633404228523,173.1851420419879
5281.682335805944,173.0295167892181
5403.476503583578,172.8704093932987
5528.079211966558,172.7077469417571
5655.555225142495,172.5414553450225
5785.970800743669,172.3714593428014
5919.393724285462,172.1976825127147
6055.893344398925,172.0200472814116
6195.54060887581,171.8384749382459
6338.408101544777,171.6528856518401
6484.570079997968,171.4631984896322
6634.102514187535,171.2693314406472
6787.083125912207,171.0712014417541
6943.591429214391,170.8687244076164
7103.708771708833,170.6618152645387
7267.518376864296,170.4503879885556
7435.105387260253,170.2343556479392
7606.556908841055,170.0136304504739
7781.962056190597,169.7881237957047
7961.411998851005,169.5577463325597
8145.000008709415,169.3224080225545
8332.821508477484,169.0820182089359
8524.97412128882,168.8364856921261
8721.557721440118,168.5857188116963
8922.674486302372,168.3296255353517
9128.42894942915,168.0681135550765
9338.92805488952,167.8010903910574
9554.281212853897,167.528463503401
9774.600356461664,167.2501404123377
10000.00000000016,166.9660288269504
10230.59729842525,166.6760367830346
10466.51210825443,166.3800727902338
10707.86704986412,166.0780459888875
10954.78757122349,165.7698663168794
11207.40201309798,165.4554446867653
11465.8416757564,165.1346931734495
11730.24088721632,164.8075252127648
12000.73707306308,164.4738558110103
12277.47082787889,164.1336017657779
12560.58598831906,163.7866818981286
12850.22970787329,163.4330172962726
13146.55253335103,163.0725315707327
13449.70848313045,162.7051511210747
13759.85512721193,162.3308054140295
14077.1536691175,161.9494272728548
14401.76902967883,161.5609531777703
14733.86993275743,161.1653235771282
15073.62899294147,160.7624832087625
15421.22280526491,160.3523814311054
15776.83203699545,159.9349725635193
16140.6415215392,159.5102162347798
16512.84035451067,159.0780777390989
16893.62199201816,158.6385283984983
17283.18435121556,158.1915459304939
17681.72991317287,157.7371148195508
18089.46582811883,157.2752266911075
18506.60402311055,156.8058806863717
18933.36131218576,156.3290838361286
19369.95950905537,155.8448514316761
19816.62554239451,155.3532073907962
20273.59157379229,154.8541846165112
20741.0951184213,154.3478253461701
21219.37916848987,153.8341814886076
21708.692319541,153.3133149463294
22209.28889966376,152.7852979204669
22721.42910168423,152.2502131952586
23245.37911840478,151.7081543994237
23781.41128096188,151.1592262413113
24329.80420037445,150.6035447150608
24890.84291235621,150.0412372746408
25464.81902546747,149.4724429728369
26052.03087268312,148.8973125626002
26652.78366645589,148.3160085578141
27267.38965735518,147.7287052508494
27896.16829636421,147.1355886848481
28539.44640091952,146.5368565782097
29197.55832477947,145.9327181996434
29870.84613180978,145.3233941921721
30559.65977377645,144.7091163447822
31264.35727223871,144.0901273108561
31985.30490463621,143.4666802731822
32722.87739466738,142.8390385551432
33477.45810705794,142.2074751789698
34249.4392468206,141.5722723716862
35039.22206310969,140.9337210202613
35847.21705777667,140.2921200780472
36673.84419873476,139.6477759246871
37519.53313824384,139.0010016823872
38384.72343622879,138.3521164922247
39269.86478874764,137.7014447538488
40175.417261728,137.049315333001
41101.8515300935,136.3960607414194
42049.64912240436,135.7420162939288
43019.30267113928,135.0875192476865
44011.31616874886,134.4329079293483
45026.20522961344,133.7785208551248
46064.49735804168,133.1246958495839
47126.73222244907,132.4717691687974
48213.46193585899,131.8200746331129
49325.25134287197,131.1699427751853
50462.67831325243,130.5217000084376
51626.33404228545,129.8756678208589
52816.82335805965,129.2321619989429
54034.765035836,128.5914918861348
55280.79211966581,127.9539596796504
56555.55225142519,127.3198597693113
57859.70800743693,126.6894781216187
59193.93724285486,126.0630917113848
60558.9334439895,125.4409680034448
61955.40608875836,124.8233644858241
63384.08101544804,124.2105282556978
64845.70079997995,123.6026956587494
66341.02514187564,123.0000919821613
67870.83125912237,122.4029312010323
69435.91429214421,121.811415777488
71037.08771708864,121.2257365114968
72675.18376864328,120.6460724420242
74351.05387260286,120.0725907965055
76065.56908841089,119.5054469871574
77819.62056190633,118.9447846511275
79614.11998851041,118.3907357327031
81450.00008709452,117.8434206043626
83328.21508477522,117.3029482242897
85249.74121288859,116.7694163271737
87215.57721440158,116.2429116455801
89226.74486302413,115.7235101587756
91284.28949429191,115.2112773661367
93389.28054889562,114.7062685822247
95542.8121285394,114.2085292505609
97746.00356461707,113.7180952734432
100000.000000002,113.2349933550719
102305.9729842529,112.7592413553734
104665.1210825448,112.2908486521562
107078.6704986417,111.8298165092376
109547.8757122354,111.3761384483655
112074.0201309803,110.929800623123
114658.4167575645,110.4907821925647
117302.4088721637,110.0590556933554
120007.3707306313,109.6345874085478
122774.7082787894,109.2173377317014
125605.8598831911,108.8072615251431
128502.2970787335,108.4043084712363
131465.5253335109,108.0084234157284
134497.0848313051,107.6195467022164
137598.5512721199,107.2376144973127
140771.5366911756,106.8625591055632
144017.6902967889,106.4943092739603
147338.6993275749,106.1327904854984
150736.2899294154,105.7779252415246
154212.2280526498,105.4296333327081
157768.3203699552,105.0878320985287
161406.4152153927,104.7524366751733
165128.4035451074,104.4233602319421
168936.2199201823,104.1005141961851
172831.8435121564,103.7838084668398
176817.2991317294,103.4731516169553
180894.6582811891,103.1684510850615
185066.0402311062,102.8696133559802
189333.6131218584,102.5765441311097
193699.5950905545,102.289148488524
198166.255423946,102.0073310332504
202735.9157379237,101.7309960380191
207410.9511842138,101.4600475747801
212193.7916848995,101.1943896373437
217086.9231954108,100.9339262555807
222092.8889966384,100.6785616013839
227214.2910168431,100.4282000868307
232453.7911840487,100.182746454915
237814.1128096197,99.94210586312485
243298.0420037454,99.70618396022586
248908.4291235631,99.47488695663949
254648.1902546756,99.24812168865138
260520.3087268322,99.02579567687268
266527.8366645598,98.80781717913295
272673.8965735529,98.59409523826682
278961.6829636431,98.38453972493188
285394.4640091963,98.17906137580812
291975.5832477959,97.97757182751637
298708.4613180989,97.77998364633601
305596.5977377658,97.58621035415456
312643.5727223884,97.39616645076673
319853.0490463634,97.2097674328374
327228.7739466752,97.02692980963396
